Time,GPS_X,GPS_Y,Encoder_X,Encoder_Y,Theta
1738948011.064946,0,0,0,0,0
1738948011.165168,0.0,0.0,0.0,0.0,0.0
1738948011.265326,0.042597279558794304,-0.1667085532780277,0.0,0.0,0.0
1738948011.365543,0.042597279558794304,-0.1667085532780277,0.0,0.0,0.0
1738948011.4657555,-0.18458819628784948,-0.2037548896765884,0.740300859375,0.0,0.00024062500000000147
1738948011.5659726,-0.09939365230385339,-0.2037548896765884,2.7040462400241863,0.0004725262413385313,0.002646875000000005
1738948011.6661897,0.9939364322369787,0.20375481070757928,5.439253518012242,0.007712294912416918,0.005775000000000002
1738948011.7663414,3.8621530137249818,1.1484362704173634,8.291312427127771,0.024183118217050038,0.00721875
1738948011.8665617,5.7790304425348005,1.8523166619900167,11.182306772001386,0.04505284615498577,0.006978125000000004
1738948011.966778,8.008287891175259,2.75995178530124,14.120060760343135,0.06555319345549529,0.006737500000000003
1738948012.0669875,10.365337148224915,3.6675869875814726,16.901970321402953,0.08429659273603068,0.004090625000000003
1738948012.167216,12.750784621914287,4.575222110892696,19.69950489974393,0.09574032145074424,0.00048125000000000294
1738948012.267435,14.951643884182214,5.445810976774368,22.48926992043693,0.0970828959706002,-0.004331249999999995
1738948012.3676572,17.294494063179197,6.316399763687031,25.286801664141535,0.08496601083576756,-0.010828124999999996
1738948012.467875,19.978122448379352,7.2796044310806,28.060819094294924,0.054927429349929974,-0.021896875000000003
1738948012.5680842,22.533959010036714,8.131670168247496,30.87328797355636,-0.006666694697912236,-0.028393750000000002
1738948012.6683092,24.507632796458,9.094874835641065,33.693086829829475,-0.08675288159252481,-0.035612500000000005
1738948012.7685256,26.623297529875526,9.891370949756606,36.68356349097069,-0.19329627672195251,-0.038018750000000004
1738948012.8686593,28.880953149754923,10.8360524884354,39.627053068051545,-0.3052580203936931,-0.037537499999999994
1738948012.9687898,31.195405142379375,12.15119731213079,42.70297775465145,-0.42077480525841815,-0.036815625
1738948013.068889,33.595051694121416,13.077355643125799,45.810134469233326,-0.5352184316095734,-0.0394625
1738948013.169104,35.937901873118406,13.892374964925125,48.81575192360584,-0.6538892183656968,-0.035131249999999996
1738948013.269327,38.252353865742855,14.837056503603918,51.5882202091009,-0.7513295852397153,-0.03224375
1738948013.3694868,40.169231294552674,15.559459944922338,54.45442137688684,-0.8437786998951349,-0.030318750000000005
1738948013.4696217,42.35589146363434,16.578234156398253,57.22732648700002,-0.927875486282677,-0.025987500000000007
1738948013.5698385,44.528352554663336,17.763716763214177,59.9148797274321,-0.997734003146596,-0.02478437500000001
1738948013.6700492,47.05579091481457,18.78249097469009,62.86738348193681,-1.0709249502192097,-0.017325000000000014
1738948013.7702608,49.242451083896235,19.838311443595558,65.85930840422564,-1.1227652363194798,-0.010106250000000015
1738948013.8703804,51.64209763563828,20.690377101793445,68.86711407588376,-1.1531639073315383,-0.003368750000000022
1738948013.970464,53.97074873658259,21.70915131326936,71.95298225334962,-1.1635594650789873,0.004812499999999974
1738948014.070582,56.554983484612485,22.727925445776265,75.0622098572786,-1.148596191717651,0.008903124999999972
1738948014.1706965,58.85523638405068,23.691130113169834,78.08563458898065,-1.1216775521584406,0.012753124999999973
1738948014.2708795,61.59566114199589,24.43205676217204,80.98426116600768,-1.08470900085609,0.017565624999999974
1738948014.3710542,63.76812221789129,25.58049311155841,83.77359612812742,-1.0357075489898078,0.020453124999999982
1738948014.47124,66.1393705832608,26.765975797343344,86.48486786317267,-0.9802458352960794,0.01997187499999998
1738948014.5713203,70.62628365178065,28.599769330618585,89.24291249437209,-0.9251551877073462,0.018528124999999982
1738948014.67141,73.32411114530066,29.26660330682367,92.03219900057313,-0.8734690240521734,0.01997187499999998
1738948014.7714996,75.73795679022898,30.2668543106158,94.9538564488776,-0.8151102871997017,0.025506249999999973
1738948014.8716345,78.03820968966717,31.06335050370035,97.92188681126804,-0.7393905417557336,0.034890624999999974
1738948014.9718168,80.1112771283923,31.89689295421445,100.88128801264854,-0.6360932643013243,0.04644062499999997
1738948015.071998,80.1112771283923,31.89689295421445,103.03752216519625,-0.5358843510053075,0.06689374999999997
1738948015.1721737,82.66711367491607,33.00828296720226,104.20380396122908,-0.45775081002303897,0.13811874999999996
1738948015.2722547,84.17221743159139,33.397269459902645,104.32729883215197,-0.440584554729523,0.25121249999999995
1738948015.372371,83.63265193591411,33.193514649195066,104.19898209886308,-0.4735149753793774,0.38475937499999996
1738948015.4724567,83.93083286255849,33.26760732199219,103.9317343873846,-0.5817347753184224,0.5163812499999999
1738948015.5725424,83.53325829874386,33.397269459902645,103.78264983605341,-0.6663800146589279,0.6376562499999999
1738948015.672662,83.4338646615736,33.61954747829401,103.64490048829299,-0.7684394932986526,0.752675
1738948015.7728422,83.33447100926973,33.434315796301206,103.61077513400673,-0.8004014882240529,0.86095625
1738948015.8730247,83.00789189625283,33.48988526141454,103.59553945049362,-0.8181328496800099,0.962740625
1738948015.9733274,82.88010007271005,33.675116943407346,103.68012219028877,-0.6966109396209597,1.0500875
1738948016.0735004,82.88010007271005,33.675116943407346,103.74602780540184,-0.5816933755035737,1.127809375
1738948016.1736174,82.89429915076272,33.675116943407346,103.77274970588033,-0.5253697046263724,1.197109375
1738948016.2737963,82.95109552350777,33.80477916028681,103.76706029253374,-0.5398794105990389,1.2553406249999999
1738948016.3739398,82.96529461669404,33.915918169482495,103.73321298867238,-0.6435929999292459,1.3063531249999998
1738948016.4741719,82.79490551359245,34.13819610890485,103.70877166443584,-0.733854051156573,1.3539968749999998
1738948016.574693,83.05048917581163,34.02705709970917,103.71044790120688,-0.7262438292020013,1.3989937499999998
1738948016.6749063,83.14988281298189,34.193765652987196,103.71178012064865,-0.718565910260689,1.4415843749999997
1738948016.775093,83.13568371979562,34.24933511810053,103.80616578524693,0.007835932285597647,1.4781593749999997
1738948016.8752887,83.90243469131956,32.98975983848749,103.97989170194212,1.8778098438021147,1.5039062499999998
1738948016.9753885,85.60632573746899,29.89639094663019,104.16740191871692,4.676886843063293,1.5207499999999998
1738948017.075492,85.60632573746899,29.89639094663019,104.32216453246978,7.766691712516163,1.5373531249999999
1738948017.1756198,86.65705854245103,27.969981611843053,104.43394574875228,11.107865205521938,1.5510687499999998
1738948017.275838,89.75246059978568,22.653832772979143,104.50019904513067,14.46583978520578,1.5671906249999998
1738948017.3760154,91.05877706698689,20.2643442726945,104.51200015364061,17.73872757204366,1.5845156249999999
1738948017.4761455,92.39349170542704,17.43029981459614,104.46603048470222,21.08924770004927,1.599915625
1738948017.5762925,93.65721089306945,14.837056503603918,104.36915094871893,24.4152946151969,1.60785625
1738948017.6764483,94.80733736548893,12.003011966536548,104.2522158816176,27.569147017987085,1.610984375
1738948017.7765517,96.09945472437029,8.965212618761598,104.1285466254179,30.6447547173355,1.6160375
1738948017.876666,97.3205766324539,6.409015644167937,103.97876474550617,33.95323825096026,1.620609375
1738948017.9768841,98.65529130116124,3.482355305588669,103.80803829044493,37.37774704391082,1.625903125
1738948018.077013,98.65529130116124,3.482355305588669,103.61403529687469,40.89467381135598,1.628309375
1738948018.1772304,100.94134509227958,-2.03754834398282,103.42545614394767,44.16995113823513,1.63384375
1738948018.2773278,101.89268427522495,-4.556699061146929,103.22366316349306,47.366363063396214,1.643228125
1738948018.3774302,102.71623160436035,-7.149942372139151,102.99583077163784,50.50633511170579,1.655740625
1738948018.4776042,103.7953625957149,-9.650569881619475,102.73798436438129,53.53450707469547,1.665365625
1738948018.5777411,104.87449358706948,-11.984488837821772,102.45468342836776,56.521267937431716,1.6694562499999999
1738948018.677977,105.92522639205151,-14.46659321858732,102.151491431276,59.58439239101171,1.6730656249999998
1738948018.7781959,106.96176010384728,-17.02279019318098,101.83804102769301,62.63865063633292,1.6788406249999999
1738948018.8782845,107.94149745803159,-19.671603048255548,101.52376387263027,65.53610376736383,1.683653125
1738948018.978382,108.72244752274179,-22.30189269564633,101.18150502909272,68.55589996763831,1.688946875
1738948019.078602,109.54599485187718,-24.598765394419075,100.81132367579093,71.6744400994224,1.6940000000000002
1738948019.178773,110.36954219614617,-27.247578170524633,100.42251577779334,74.81427056984806,1.6988125000000003
1738948019.2789357,111.20728863360142,-29.488881404184042,100.01462256037699,77.98310904741741,1.7036250000000002
1738948019.3791203,112.1160305067208,-32.30440273356763,99.59458022522755,81.12677585988214,1.7091593750000003
1738948019.4793446,113.2235596995815,-34.69389123385227,99.17111827545448,84.16773369610962,1.7125281250000002
1738948019.579567,113.93351429836036,-37.435319890438734,98.749523001618,87.12238821327529,1.7108437500000002
1738948019.6797798,114.67186708351176,-40.12117900294285,98.3307295191301,90.09318135493709,1.7057906250000001
1738948019.7799876,115.83619261885032,-43.103408885604466,97.92275802900103,93.09693975106211,1.6988125
1738948019.880211,116.77333269347584,-46.030069224183734,97.53277231869077,96.12665849059184,1.692075
